Current(A)	Counts(n)
-50.0000	289.6899
-49.7600	298.9921
-49.5200	347.3835
-49.2800	325.2275
-49.0400	361.5522
-48.8000	370.1036
-48.5600	352.3800
-48.3200	365.3791
-48.0800	390.2358
-47.8400	407.7862
-47.6000	412.2516
-47.3600	417.5056
-47.1200	407.7846
-46.8800	442.0503
-46.6400	453.5090
-46.4000	428.7284
-46.1600	471.8257
-45.9200	486.0167
-45.6800	494.2514
-45.4400	500.7227
-45.2000	524.8416
-44.9600	494.2542
-44.7200	506.6219
-44.4800	524.6965
-44.2400	519.3005
-44.0000	540.7852
-43.7600	539.9114
-43.5200	540.4615
-43.2800	518.1567
-43.0400	554.5257
-42.8000	566.8612
-42.5600	601.5791
-42.3200	570.7670
-42.0800	584.1981
-41.8400	604.5561
-41.6000	592.6996
-41.3600	624.5562
-41.1200	576.3259
-40.8800	586.2961
-40.6400	598.1945
-40.4000	596.6657
-40.1600	583.1193
-39.9200	589.5022
-39.6800	631.2274
-39.4400	598.8017
-39.2000	603.7696
-38.9600	600.2603
-38.7200	564.7087
-38.4800	597.2800
-38.2400	592.0679
-38.0000	567.5124
-37.7600	571.6219
-37.5200	604.4897
-37.2800	582.9888
-37.0400	585.0096
-36.8000	545.8774
-36.5600	575.0247
-36.3200	561.7773
-36.0800	551.7342
-35.8400	536.9748
-35.6000	514.7159
-35.3600	530.3931
-35.1200	540.7333
-34.8800	514.8154
-34.6400	488.0028
-34.4000	488.6301
-34.1600	517.1713
-33.9200	468.3427
-33.6800	460.3354
-33.4400	451.0811
-33.2000	459.3375
-32.9600	461.6188
-32.7200	415.8480
-32.4800	422.0868
-32.2400	411.5361
-32.0000	395.8122
-31.7600	378.4165
-31.5200	375.1875
-31.2800	344.2099
-31.0400	336.2310
-30.8000	337.8467
-30.5600	309.0381
-30.3200	336.0735
-30.0800	300.0526
-29.8400	252.5524
-29.6000	281.4214
-29.3600	268.1437
-29.1200	275.4845
-28.8800	242.2113
-28.6400	220.6071
-28.4000	196.8039
-28.1600	209.2910
-27.9200	208.1754
-27.6800	163.1868
-27.4400	200.4381
-27.2000	157.2157
-26.9600	181.7039
-26.7200	139.8161
-26.4800	144.1287
-26.2400	126.1968
-26.0000	148.7109
-25.7600	112.4027
-25.5200	140.7558
-25.2800	 85.1622
-25.0400	 76.9607
-24.8000	 75.3700
-24.5600	 59.0948
-24.3200	 37.7154
-24.0800	 49.1167
-23.8400	 38.1702
-23.6000	 50.2507
-23.3600	 11.1173
-23.1200	 40.7477
-22.8800	 57.0188
-22.6400	 19.1143
-22.4000	 23.2801
-22.1600	 17.3848
-21.9200	 18.0303
-21.6800	 -0.8466
-21.4400	  0.0739
-21.2000	-20.8248
-20.9600	 43.2493
-20.7200	 15.1114
-20.4800	 14.7531
-20.2400	-19.8284
-20.0000	 11.2973
-19.7600	-31.0946
-19.5200	-20.5173
-19.2800	  4.3209
-19.0400	-36.1396
-18.8000	 17.8287
-18.5600	 16.2991
-18.3200	 16.1880
-18.0800	 33.6430
-17.8400	 14.3276
-17.6000	 42.0233
-17.3600	 56.0618
-17.1200	 31.2987
-16.8800	 36.2037
-16.6400	 20.3092
-16.4000	 53.8618
-16.1600	 54.4672
-15.9200	 44.9879
-15.6800	 60.9815
-15.4400	 64.8021
-15.2000	 79.6365
-14.9600	 87.8923
-14.7200	119.1676
-14.4800	 92.5497
-14.2400	109.7149
-14.0000	100.1613
-13.7600	127.8202
-13.5200	158.2764
-13.2800	161.7190
-13.0400	160.2894
-12.8000	185.4893
-12.5600	195.5987
-12.3200	177.5100
-12.0800	202.2579
-11.8400	205.6667
-11.6000	210.8111
-11.3600	256.6860
-11.1200	217.8413
-10.8800	232.0151
-10.6400	268.3179
-10.4000	280.9309
-10.1600	297.1704
 -9.9200	306.9186
 -9.6800	311.2506
 -9.4400	332.5335
 -9.2000	350.5592
 -8.9600	331.5396
 -8.7200	371.5784
 -8.4800	379.8500
 -8.2400	365.1673
 -8.0000	374.9288
 -7.7600	384.9722
 -7.5200	417.5808
 -7.2800	443.7391
 -7.0400	423.1174
 -6.8000	434.7713
 -6.5600	462.4153
 -6.3200	480.3089
 -6.0800	480.3035
 -5.8400	500.8774
 -5.6000	492.1012
 -5.3600	497.1562
 -5.1200	511.5858
 -4.8800	503.8390
 -4.6400	517.9994
 -4.4000	507.0229
 -4.1600	532.8975
 -3.9200	522.9241
 -3.6800	539.5057
 -3.4400	546.5706
 -3.2000	550.3484
 -2.9600	602.4438
 -2.7200	559.9747
 -2.4800	574.0335
 -2.2400	593.0460
 -2.0000	557.3076
 -1.7600	586.0436
 -1.5200	582.2503
 -1.2800	599.8330
 -1.0400	612.1155
 -0.8000	588.8417
 -0.5600	606.6378
 -0.3200	582.1421
 -0.0800	595.2635
  0.1600	597.8388
  0.4000	610.0370
  0.6400	602.5223
  0.8800	606.1912
  1.1200	599.4551
  1.3600	570.8275
  1.6000	575.6678
  1.8400	610.0014
  2.0800	572.8860
  2.3200	581.8942
  2.5600	582.2449
  2.8000	585.9000
  3.0400	559.1393
  3.2800	584.2075
  3.5200	536.6474
  3.7600	534.0919
  4.0000	521.8016
  4.2400	509.5799
  4.4800	546.2030
  4.7200	501.1631
  4.9600	492.2234
  5.2000	530.5061
  5.4400	505.4578
  5.6800	494.5517
  5.9200	472.8125
  6.1600	480.3038
  6.4000	467.3362
  6.6400	452.7397
  6.8800	437.6372
  7.1200	442.1047
  7.3600	421.0674
  7.6000	409.8151
  7.8400	406.7270
  8.0800	370.8030
  8.3200	376.7399
  8.5600	360.7831
  8.8000	369.0782
  9.0400	351.5596
  9.2800	330.8779
  9.5200	327.5397
  9.7600	326.9625
